    ID Elem.     Coord. X     Coord. Y     Coord. Z            X            Y            Z    Magnitude
           1   3.8249e+03   1.5503e+01   0.0000e+00  -2.1117e-06  -4.0836e-09   0.0000e+00   2.1117e-06
           3   3.7745e+03   1.5517e+01   0.0000e+00  -2.1273e-06  -5.5481e-09   0.0000e+00   2.1273e-06
           5   3.7218e+03   1.5526e+01   0.0000e+00  -2.1490e-06  -7.3174e-09   0.0000e+00   2.1491e-06
           7   3.6668e+03   1.5489e+01   0.0000e+00  -2.1786e-06  -9.4698e-09   0.0000e+00   2.1787e-06
           9   3.6116e+03   1.5428e+01   0.0000e+00  -2.2169e-06  -1.2078e-08   0.0000e+00   2.2169e-06
          11   3.5563e+03   1.5357e+01   0.0000e+00  -2.2657e-06  -1.5252e-08   0.0000e+00   2.2658e-06
          13   3.5010e+03   1.5309e+01   0.0000e+00  -2.3276e-06  -1.9179e-08   0.0000e+00   2.3276e-06
          15   3.4457e+03   1.5361e+01   0.0000e+00  -2.4053e-06  -2.4217e-08   0.0000e+00   2.4054e-06
          17   3.3904e+03   1.5595e+01   0.0000e+00  -2.5030e-06  -3.0854e-08   0.0000e+00   2.5032e-06
          19   3.3349e+03   1.5879e+01   0.0000e+00  -2.6260e-06  -3.9435e-08   0.0000e+00   2.6262e-06
          21   3.2793e+03   1.5955e+01   0.0000e+00  -2.7803e-06  -4.9704e-08   0.0000e+00   2.7808e-06
          23   3.2240e+03   1.5866e+01   0.0000e+00  -2.9731e-06  -6.1851e-08   0.0000e+00   2.9737e-06
          25   3.1688e+03   1.5788e+01   0.0000e+00  -3.2129e-06  -7.6712e-08   0.0000e+00   3.2138e-06
          27   3.1138e+03   1.5758e+01   0.0000e+00  -3.5105e-06  -9.4865e-08   0.0000e+00   3.5118e-06
          29   3.0588e+03   1.5755e+01   0.0000e+00  -3.8774e-06  -1.1624e-07   0.0000e+00   3.8791e-06
          31   3.0039e+03   1.5762e+01   0.0000e+00  -4.3234e-06  -1.3979e-07   0.0000e+00   4.3256e-06
          33   2.9488e+03   1.5794e+01   0.0000e+00  -4.8521e-06  -1.6250e-07   0.0000e+00   4.8549e-06
          35   2.8934e+03   1.5802e+01   0.0000e+00  -5.4515e-06  -1.7668e-07   0.0000e+00   5.4544e-06
          37   2.8376e+03   1.5467e+01   0.0000e+00  -6.0734e-06  -1.6570e-07   0.0000e+00   6.0757e-06
          39   2.7819e+03   1.4504e+01   0.0000e+00  -6.6080e-06  -1.1462e-07   0.0000e+00   6.6090e-06
          41   2.7271e+03   1.3216e+01   0.0000e+00  -6.9109e-06  -3.6670e-08   0.0000e+00   6.9110e-06
          43   2.6731e+03   1.3097e+01   0.0000e+00  -6.8963e-06   4.3218e-08   0.0000e+00   6.8964e-06
          45   2.6182e+03   1.4118e+01   0.0000e+00  -6.5570e-06   1.2200e-07   0.0000e+00   6.5581e-06
          47   2.5622e+03   1.4845e+01   0.0000e+00  -5.9671e-06   1.7629e-07   0.0000e+00   5.9697e-06
          49   2.5061e+03   1.5061e+01   0.0000e+00  -5.2608e-06   1.9514e-07   0.0000e+00   5.2644e-06
          51   2.4505e+03   1.5190e+01   0.0000e+00  -4.5379e-06   1.9673e-07   0.0000e+00   4.5421e-06
          53   2.3952e+03   1.5823e+01   0.0000e+00  -3.8241e-06   2.0440e-07   0.0000e+00   3.8296e-06
          55   2.3396e+03   1.6154e+01   0.0000e+00  -3.0888e-06   2.2424e-07   0.0000e+00   3.0970e-06
          57   2.2847e+03   1.6105e+01   0.0000e+00  -2.2492e-06   2.7991e-07   0.0000e+00   2.2666e-06
          59   2.2308e+03   1.6530e+01   0.0000e+00  -1.0894e-06   4.5056e-07   0.0000e+00   1.1789e-06
          61   2.2103e+03   3.3822e+01   0.0000e+00  -6.9801e-07   1.1301e-06   0.0000e+00   1.3283e-06
          62   2.1948e+03   8.3913e+01   0.0000e+00  -1.5125e-06   2.5621e-06   0.0000e+00   2.9752e-06
          64   2.1677e+03   1.3042e+02   0.0000e+00  -2.7578e-06   3.1579e-06   0.0000e+00   4.1926e-06
          66   2.1295e+03   1.6853e+02   0.0000e+00  -3.9262e-06   2.8733e-06   0.0000e+00   4.8653e-06
          68   2.0825e+03   1.9887e+02   0.0000e+00  -4.6848e-06   1.9147e-06   0.0000e+00   5.0610e-06
          70   2.0269e+03   2.1067e+02   0.0000e+00  -5.0535e-06   6.7722e-07   0.0000e+00   5.0986e-06
          72   1.9728e+03   2.0968e+02   0.0000e+00  -4.8846e-06  -5.6617e-07   0.0000e+00   4.9173e-06
          74   1.9202e+03   1.9605e+02   0.0000e+00  -4.2472e-06  -1.6073e-06   0.0000e+00   4.5412e-06
          76   1.8723e+03   1.6918e+02   0.0000e+00  -3.2523e-06  -2.2407e-06   0.0000e+00   3.9495e-06
          78   1.8329e+03   1.3069e+02   0.0000e+00  -2.0970e-06  -2.2972e-06   0.0000e+00   3.1104e-06
          80   1.8052e+03   8.4150e+01   0.0000e+00  -1.0716e-06  -1.7466e-06   0.0000e+00   2.0491e-06
          82   1.7895e+03   3.3911e+01   0.0000e+00  -4.7115e-07  -7.4001e-07   0.0000e+00   8.7726e-07
          84   1.7690e+03   1.6620e+01   0.0000e+00  -7.1501e-07  -2.8813e-07   0.0000e+00   7.7088e-07
          85   1.7147e+03   1.6030e+01   0.0000e+00  -1.4202e-06  -1.5410e-07   0.0000e+00   1.4286e-06
          87   1.6599e+03   1.5582e+01   0.0000e+00  -1.8396e-06  -9.4770e-08   0.0000e+00   1.8421e-06
          89   1.6048e+03   1.5400e+01   0.0000e+00  -2.1179e-06  -6.4933e-08   0.0000e+00   2.1189e-06
          91   1.5497e+03   1.5392e+01   0.0000e+00  -2.3173e-06  -4.7657e-08   0.0000e+00   2.3178e-06
          93   1.4944e+03   1.5449e+01   0.0000e+00  -2.4658e-06  -3.5840e-08   0.0000e+00   2.4660e-06
          95   1.4391e+03   1.5516e+01   0.0000e+00  -2.5764e-06  -2.6398e-08   0.0000e+00   2.5765e-06
          97   1.3838e+03   1.5594e+01   0.0000e+00  -2.6550e-06  -1.8012e-08   0.0000e+00   2.6550e-06
          99   1.3285e+03   1.5692e+01   0.0000e+00  -2.7044e-06  -1.0179e-08   0.0000e+00   2.7045e-06
         101   1.2742e+03   1.5759e+01   0.0000e+00  -2.7268e-06  -2.9402e-09   0.0000e+00   2.7268e-06
         103   1.2208e+03   1.5642e+01   0.0000e+00  -2.7254e-06   3.4336e-09   0.0000e+00   2.7254e-06
         105   1.1676e+03   1.5311e+01   0.0000e+00  -2.7043e-06   8.5385e-09   0.0000e+00   2.7043e-06
         107   1.1147e+03   1.5061e+01   0.0000e+00  -2.6675e-06   1.2317e-08   0.0000e+00   2.6675e-06
         109   1.0620e+03   1.5118e+01   0.0000e+00  -2.6192e-06   1.5091e-08   0.0000e+00   2.6192e-06
         111   1.0092e+03   1.5479e+01   0.0000e+00  -2.5633e-06   1.7070e-08   0.0000e+00   2.5634e-06
         113   9.5613e+02   1.5905e+01   0.0000e+00  -2.5034e-06   1.8135e-08   0.0000e+00   2.5035e-06
         115   9.0287e+02   1.6074e+01   0.0000e+00  -2.4429e-06   1.8043e-08   0.0000e+00   2.4430e-06
         117   8.4973e+02   1.6002e+01   0.0000e+00  -2.3846e-06   1.7033e-08   0.0000e+00   2.3847e-06
         119   7.9675e+02   1.5868e+01   0.0000e+00  -2.3303e-06   1.5559e-08   0.0000e+00   2.3304e-06
         121   7.4384e+02   1.5748e+01   0.0000e+00  -2.2809e-06   1.3908e-08   0.0000e+00   2.2810e-06
         123   6.9094e+02   1.5661e+01   0.0000e+00  -2.2369e-06   1.2233e-08   0.0000e+00   2.2369e-06
         125   6.3802e+02   1.5604e+01   0.0000e+00  -2.1983e-06   1.0622e-08   0.0000e+00   2.1983e-06
         127   5.8507e+02   1.5570e+01   0.0000e+00  -2.1647e-06   9.1296e-09   0.0000e+00   2.1648e-06
         129   5.3207e+02   1.5554e+01   0.0000e+00  -2.1360e-06   7.7913e-09   0.0000e+00   2.1360e-06
         131   4.7900e+02   1.5548e+01   0.0000e+00  -2.1114e-06   6.6128e-09   0.0000e+00   2.1114e-06
         133   4.2579e+02   1.5547e+01   0.0000e+00  -2.0906e-06   5.5957e-09   0.0000e+00   2.0906e-06
         135   3.7077e+02   1.5576e+01   0.0000e+00  -2.0724e-06   4.7205e-09   0.0000e+00   2.0724e-06
         137   3.1392e+02   1.5651e+01   0.0000e+00  -2.0566e-06   3.9929e-09   0.0000e+00   2.0566e-06
         139   2.5690e+02   1.5810e+01   0.0000e+00  -2.0432e-06   3.4266e-09   0.0000e+00   2.0432e-06
         141   1.9968e+02   1.6033e+01   0.0000e+00  -2.0316e-06   3.0020e-09   0.0000e+00   2.0316e-06
         143   1.4196e+02   1.6086e+01   0.0000e+00  -2.0215e-06   2.6644e-09   0.0000e+00   2.0215e-06
         145   8.4631e+01   1.4544e+01   0.0000e+00  -2.0124e-06   2.2103e-09   0.0000e+00   2.0124e-06
         147   3.1414e+01   1.1832e+01   0.0000e+00  -2.0046e-06   1.7260e-09   0.0000e+00   2.0046e-06
         149   1.2366e+01   2.9610e+01   0.0000e+00  -2.0018e-06   4.2798e-09   0.0000e+00   2.0018e-06
         150   1.4867e+01   7.9604e+01   0.0000e+00  -2.0021e-06   1.1363e-08   0.0000e+00   2.0021e-06
         152   1.5911e+01   1.3330e+02   0.0000e+00  -2.0020e-06   1.8518e-08   0.0000e+00   2.0021e-06
         154   1.5555e+01   1.8698e+02   0.0000e+00  -2.0017e-06   2.4894e-08   0.0000e+00   2.0019e-06
         156   1.5456e+01   2.4025e+02   0.0000e+00  -2.0014e-06   3.0191e-08   0.0000e+00   2.0016e-06
         158   1.5544e+01   2.9372e+02   0.0000e+00  -2.0010e-06   3.4243e-08   0.0000e+00   2.0013e-06
         160   1.5509e+01   3.4741e+02   0.0000e+00  -2.0005e-06   3.6842e-08   0.0000e+00   2.0009e-06
         162   1.5201e+01   4.0102e+02   0.0000e+00  -2.0000e-06   3.7834e-08   0.0000e+00   2.0004e-06
         164   1.4814e+01   4.5433e+02   0.0000e+00  -1.9996e-06   3.7161e-08   0.0000e+00   1.9999e-06
         166   1.4442e+01   5.0749e+02   0.0000e+00  -1.9992e-06   3.4850e-08   0.0000e+00   1.9995e-06
         168   1.3932e+01   5.6015e+02   0.0000e+00  -1.9988e-06   3.1025e-08   0.0000e+00   1.9990e-06
         170   1.4577e+01   6.1264e+02   0.0000e+00  -1.9984e-06   2.5853e-08   0.0000e+00   1.9986e-06
         172   1.5580e+01   6.6661e+02   0.0000e+00  -1.9980e-06   1.9337e-08   0.0000e+00   1.9981e-06
         174   1.4155e+01   7.2063e+02   0.0000e+00  -1.9980e-06   1.1872e-08   0.0000e+00   1.9980e-06
         176   1.1583e+01   7.7052e+02   0.0000e+00  -1.9983e-06   4.4709e-09   0.0000e+00   1.9983e-06
         178   2.9127e+01   7.8830e+02   0.0000e+00  -1.9956e-06   1.7911e-09   0.0000e+00   1.9956e-06
         179   7.8344e+01   7.8577e+02   0.0000e+00  -1.9879e-06   2.2697e-09   0.0000e+00   1.9879e-06
         181   1.3119e+02   7.8450e+02   0.0000e+00  -1.9791e-06   2.6979e-09   0.0000e+00   1.9791e-06
         183   1.8417e+02   7.8459e+02   0.0000e+00  -1.9694e-06   3.0364e-09   0.0000e+00   1.9694e-06
         185   2.3680e+02   7.8461e+02   0.0000e+00  -1.9582e-06   3.5287e-09   0.0000e+00   1.9582e-06
         187   2.8942e+02   7.8456e+02   0.0000e+00  -1.9450e-06   4.2163e-09   0.0000e+00   1.9450e-06
         189   3.4207e+02   7.8451e+02   0.0000e+00  -1.9292e-06   5.1311e-09   0.0000e+00   1.9292e-06
         191   3.9472e+02   7.8448e+02   0.0000e+00  -1.9099e-06   6.3282e-09   0.0000e+00   1.9099e-06
         193   4.4736e+02   7.8446e+02   0.0000e+00  -1.8859e-06   7.8907e-09   0.0000e+00   1.8859e-06
         195   5.0001e+02   7.8445e+02   0.0000e+00  -1.8559e-06   9.9436e-09   0.0000e+00   1.8559e-06
         197   5.5265e+02   7.8445e+02   0.0000e+00  -1.8179e-06   1.2666e-08   0.0000e+00   1.8180e-06
         199   6.0530e+02   7.8445e+02   0.0000e+00  -1.7692e-06   1.6320e-08   0.0000e+00   1.7693e-06
         201   6.5798e+02   7.8445e+02   0.0000e+00  -1.7061e-06   2.1311e-08   0.0000e+00   1.7062e-06
         203   7.1072e+02   7.8446e+02   0.0000e+00  -1.6228e-06   2.8292e-08   0.0000e+00   1.6231e-06
         205   7.6353e+02   7.8447e+02   0.0000e+00  -1.5111e-06   3.8308e-08   0.0000e+00   1.5116e-06
         207   8.1644e+02   7.8453e+02   0.0000e+00  -1.3575e-06   5.3074e-08   0.0000e+00   1.3586e-06
         209   8.6942e+02   7.8476e+02   0.0000e+00  -1.1405e-06   7.5138e-08   0.0000e+00   1.1429e-06
         211   9.2213e+02   7.8560e+02   0.0000e+00  -8.2365e-07   1.0627e-07   0.0000e+00   8.3048e-07
         213   9.7171e+02   7.8795e+02   0.0000e+00  -3.6946e-07   1.3428e-07   0.0000e+00   3.9311e-07
         215   9.9059e+02   7.7056e+02   0.0000e+00  -1.9770e-07   3.8617e-07   0.0000e+00   4.3383e-07
         216   9.9506e+02   7.1917e+02   0.0000e+00  -4.8312e-07   9.9413e-07   0.0000e+00   1.1053e-06
         218   1.0159e+03   6.6718e+02   0.0000e+00  -9.2890e-07   1.5608e-06   0.0000e+00   1.8163e-06
         220   1.0432e+03   6.2026e+02   0.0000e+00  -1.5447e-06   1.9211e-06   0.0000e+00   2.4651e-06
         222   1.0782e+03   5.7821e+02   0.0000e+00  -2.2589e-06   2.0520e-06   0.0000e+00   3.0518e-06
         224   1.1199e+03   5.4337e+02   0.0000e+00  -2.9786e-06   1.9422e-06   0.0000e+00   3.5558e-06
         226   1.1665e+03   5.1414e+02   0.0000e+00  -3.6155e-06   1.5732e-06   0.0000e+00   3.9429e-06
         228   1.2193e+03   4.9679e+02   0.0000e+00  -4.1295e-06   1.0355e-06   0.0000e+00   4.2573e-06
         230   1.2727e+03   4.8772e+02   0.0000e+00  -4.4119e-06   3.5815e-07   0.0000e+00   4.4265e-06
         232   1.3268e+03   4.8748e+02   0.0000e+00  -4.4465e-06  -3.7453e-07   0.0000e+00   4.4622e-06
         234   1.3807e+03   4.9647e+02   0.0000e+00  -4.2296e-06  -1.0809e-06   0.0000e+00   4.3656e-06
         236   1.4323e+03   5.1553e+02   0.0000e+00  -3.7919e-06  -1.6782e-06   0.0000e+00   4.1467e-06
         238   1.4796e+03   5.4302e+02   0.0000e+00  -3.1711e-06  -2.0802e-06   0.0000e+00   3.7925e-06
         240   1.5216e+03   5.7809e+02   0.0000e+00  -2.4392e-06  -2.2289e-06   0.0000e+00   3.3042e-06
         242   1.5569e+03   6.1959e+02   0.0000e+00  -1.6916e-06  -2.0968e-06   0.0000e+00   2.6941e-06
         244   1.5850e+03   6.6659e+02   0.0000e+00  -1.0288e-06  -1.7022e-06   0.0000e+00   1.9890e-06
         246   1.6056e+03   7.1906e+02   0.0000e+00  -5.3697e-07  -1.0844e-06   0.0000e+00   1.2100e-06
         248   1.6097e+03   7.7053e+02   0.0000e+00  -2.2018e-07  -4.2192e-07   0.0000e+00   4.7591e-07
         250   1.6288e+03   7.8791e+02   0.0000e+00  -4.1015e-07  -1.4645e-07   0.0000e+00   4.3551e-07
         251   1.6791e+03   7.8558e+02   0.0000e+00  -9.0914e-07  -1.1422e-07   0.0000e+00   9.1629e-07
         253   1.7324e+03   7.8482e+02   0.0000e+00  -1.2496e-06  -7.8119e-08   0.0000e+00   1.2520e-06
         255   1.7859e+03   7.8461e+02   0.0000e+00  -1.4718e-06  -5.1353e-08   0.0000e+00   1.4727e-06
         257   1.8393e+03   7.8449e+02   0.0000e+00  -1.6127e-06  -3.1465e-08   0.0000e+00   1.6130e-06
         259   1.8927e+03   7.8437e+02   0.0000e+00  -1.6917e-06  -1.5272e-08   0.0000e+00   1.6918e-06
         261   1.9463e+03   7.8428e+02   0.0000e+00  -1.7186e-06  -8.1486e-10   0.0000e+00   1.7186e-06
         263   1.9998e+03   7.8428e+02   0.0000e+00  -1.6978e-06   1.2852e-08   0.0000e+00   1.6978e-06
         265   2.0531e+03   7.8435e+02   0.0000e+00  -1.6314e-06   2.6113e-08   0.0000e+00   1.6316e-06
         267   2.1062e+03   7.8433e+02   0.0000e+00  -1.5199e-06   3.9591e-08   0.0000e+00   1.5204e-06
         269   2.1593e+03   7.8410e+02   0.0000e+00  -1.3619e-06   5.4311e-08   0.0000e+00   1.3630e-06
         271   2.2129e+03   7.8371e+02   0.0000e+00  -1.1538e-06   7.0970e-08   0.0000e+00   1.1560e-06
         273   2.2672e+03   7.8358e+02   0.0000e+00  -8.8991e-07   8.8290e-08   0.0000e+00   8.9428e-07
         275   2.3212e+03   7.8524e+02   0.0000e+00  -5.7119e-07   9.5089e-08   0.0000e+00   5.7905e-07
         277   2.3710e+03   7.8813e+02   0.0000e+00  -2.2504e-07   8.7893e-08   0.0000e+00   2.4160e-07
         279   2.3891e+03   7.7044e+02   0.0000e+00  -9.6611e-08   2.3034e-07   0.0000e+00   2.4978e-07
         280   2.3888e+03   7.2050e+02   0.0000e+00  -1.5418e-07   6.2076e-07   0.0000e+00   6.3962e-07
         282   2.3923e+03   6.6684e+02   0.0000e+00  -2.4784e-07   1.0500e-06   0.0000e+00   1.0788e-06
         284   2.3996e+03   6.1533e+02   0.0000e+00  -3.7449e-07   1.4846e-06   0.0000e+00   1.5311e-06
         286   2.4085e+03   5.6868e+02   0.0000e+00  -5.3414e-07   1.8993e-06   0.0000e+00   1.9730e-06
         288   2.4189e+03   5.2482e+02   0.0000e+00  -7.4070e-07   2.3099e-06   0.0000e+00   2.4257e-06
         290   2.4311e+03   4.8188e+02   0.0000e+00  -1.0006e-06   2.7264e-06   0.0000e+00   2.9042e-06
         292   2.4454e+03   4.3983e+02   0.0000e+00  -1.3411e-06   3.1506e-06   0.0000e+00   3.4241e-06
         294   2.4620e+03   3.9878e+02   0.0000e+00  -1.7646e-06   3.5670e-06   0.0000e+00   3.9796e-06
         296   2.4812e+03   3.5893e+02   0.0000e+00  -2.3261e-06   3.9707e-06   0.0000e+00   4.6019e-06
         298   2.5035e+03   3.2073e+02   0.0000e+00  -3.0475e-06   4.3434e-06   0.0000e+00   5.3059e-06
         300   2.5294e+03   2.8494e+02   0.0000e+00  -4.0072e-06   4.6208e-06   0.0000e+00   6.1163e-06
         302   2.5590e+03   2.5232e+02   0.0000e+00  -5.3040e-06   4.7432e-06   0.0000e+00   7.1155e-06
         304   2.5934e+03   2.2379e+02   0.0000e+00  -6.9321e-06   4.4350e-06   0.0000e+00   8.2294e-06
         306   2.6335e+03   2.0235e+02   0.0000e+00  -8.7747e-06   3.3685e-06   0.0000e+00   9.3991e-06
         308   2.6776e+03   1.9098e+02   0.0000e+00  -1.0148e-05   1.2943e-06   0.0000e+00   1.0230e-05
         310   2.7251e+03   1.9181e+02   0.0000e+00  -1.0091e-05  -1.4344e-06   0.0000e+00   1.0192e-05
         312   2.7746e+03   2.0684e+02   0.0000e+00  -8.3527e-06  -3.6182e-06   0.0000e+00   9.1027e-06
         314   2.8210e+03   2.3505e+02   0.0000e+00  -6.0866e-06  -4.4689e-06   0.0000e+00   7.5511e-06
         316   2.8607e+03   2.7199e+02   0.0000e+00  -4.2591e-06  -4.3953e-06   0.0000e+00   6.1204e-06
         318   2.8946e+03   3.1483e+02   0.0000e+00  -2.9546e-06  -3.9583e-06   0.0000e+00   4.9394e-06
         320   2.9223e+03   3.6207e+02   0.0000e+00  -2.0481e-06  -3.4429e-06   0.0000e+00   4.0060e-06
         322   2.9445e+03   4.1107e+02   0.0000e+00  -1.4285e-06  -2.9427e-06   0.0000e+00   3.2711e-06
         324   2.9629e+03   4.6106e+02   0.0000e+00  -9.9443e-07  -2.4638e-06   0.0000e+00   2.6569e-06
         326   2.9780e+03   5.1185e+02   0.0000e+00  -6.8310e-07  -2.0230e-06   0.0000e+00   2.1353e-06
         328   2.9902e+03   5.6316e+02   0.0000e+00  -4.6385e-07  -1.6148e-06   0.0000e+00   1.6801e-06
         330   3.0001e+03   6.1515e+02   0.0000e+00  -3.0744e-07  -1.2289e-06   0.0000e+00   1.2668e-06
         332   3.0075e+03   6.6823e+02   0.0000e+00  -2.0039e-07  -8.6044e-07   0.0000e+00   8.8346e-07
         334   3.0109e+03   7.2146e+02   0.0000e+00  -1.2453e-07  -5.0844e-07   0.0000e+00   5.2347e-07
         336   3.0107e+03   7.7082e+02   0.0000e+00  -7.8757e-08  -1.8876e-07   0.0000e+00   2.0453e-07
         338   3.0286e+03   7.8822e+02   0.0000e+00  -1.8419e-07  -7.2534e-08   0.0000e+00   1.9796e-07
         339   3.0776e+03   7.8522e+02   0.0000e+00  -4.6841e-07  -7.9736e-08   0.0000e+00   4.7515e-07
         341   3.1308e+03   7.8339e+02   0.0000e+00  -7.3278e-07  -7.5949e-08   0.0000e+00   7.3670e-07
         343   3.1843e+03   7.8341e+02   0.0000e+00  -9.5692e-07  -6.3483e-08   0.0000e+00   9.5902e-07
         345   3.2372e+03   7.8374e+02   0.0000e+00  -1.1420e-06  -5.1830e-08   0.0000e+00   1.1432e-06
         347   3.2899e+03   7.8402e+02   0.0000e+00  -1.2950e-06  -4.2215e-08   0.0000e+00   1.2957e-06
         349   3.3424e+03   7.8420e+02   0.0000e+00  -1.4213e-06  -3.4417e-08   0.0000e+00   1.4217e-06
         351   3.3949e+03   7.8432e+02   0.0000e+00  -1.5251e-06  -2.8055e-08   0.0000e+00   1.5254e-06
         353   3.4475e+03   7.8439e+02   0.0000e+00  -1.6102e-06  -2.2843e-08   0.0000e+00   1.6104e-06
         355   3.5000e+03   7.8442e+02   0.0000e+00  -1.6797e-06  -1.8557e-08   0.0000e+00   1.6798e-06
         357   3.5526e+03   7.8444e+02   0.0000e+00  -1.7361e-06  -1.5009e-08   0.0000e+00   1.7362e-06
         359   3.6051e+03   7.8443e+02   0.0000e+00  -1.7817e-06  -1.2080e-08   0.0000e+00   1.7817e-06
         361   3.6577e+03   7.8438e+02   0.0000e+00  -1.8182e-06  -9.6591e-09   0.0000e+00   1.8182e-06
         363   3.7103e+03   7.8427e+02   0.0000e+00  -1.8470e-06  -7.6379e-09   0.0000e+00   1.8471e-06
         365   3.7629e+03   7.8410e+02   0.0000e+00  -1.8695e-06  -5.9294e-09   0.0000e+00   1.8695e-06
         367   3.8157e+03   7.8389e+02   0.0000e+00  -1.8865e-06  -4.4191e-09   0.0000e+00   1.8865e-06
         369   3.8689e+03   7.8387e+02   0.0000e+00  -1.8988e-06  -3.0102e-09   0.0000e+00   1.8988e-06
         371   3.9218e+03   7.8546e+02   0.0000e+00  -1.9065e-06  -1.5640e-09   0.0000e+00   1.9065e-06
         373   3.9709e+03   7.8819e+02   0.0000e+00  -1.9101e-06  -4.9806e-10   0.0000e+00   1.9101e-06
