    ID Elem.     Coord. X     Coord. Y     Coord. Z            X            Y            Z    Magnitude
           1   3.5759e+03   3.3015e+01   0.0000e+00  -2.2470e+00  -5.8831e-02   0.0000e+00   2.2478e+00
           3   3.4588e+03   3.3723e+01   0.0000e+00  -2.3832e+00  -9.7574e-02   0.0000e+00   2.3852e+00
           5   3.3409e+03   3.4046e+01   0.0000e+00  -2.6020e+00  -1.6076e-01   0.0000e+00   2.6070e+00
           7   3.2228e+03   3.3602e+01   0.0000e+00  -2.9545e+00  -2.6128e-01   0.0000e+00   2.9660e+00
           9   3.1049e+03   3.2647e+01   0.0000e+00  -3.5177e+00  -4.1206e-01   0.0000e+00   3.5418e+00
          11   2.9862e+03   3.1231e+01   0.0000e+00  -4.3530e+00  -5.7913e-01   0.0000e+00   4.3913e+00
          13   2.8681e+03   2.7640e+01   0.0000e+00  -5.4370e+00  -6.1025e-01   0.0000e+00   5.4711e+00
          15   2.7539e+03   2.2922e+01   0.0000e+00  -6.4608e+00  -3.0875e-01   0.0000e+00   6.4682e+00
          17   2.6545e+03   1.8126e+01   0.0000e+00  -6.5744e+00   2.0186e-01   0.0000e+00   6.5775e+00
          19   2.5704e+03   2.4653e+01   0.0000e+00  -5.7578e+00   4.5429e-01   0.0000e+00   5.7757e+00
          21   2.4871e+03   3.2208e+01   0.0000e+00  -4.8137e+00   6.9169e-01   0.0000e+00   4.8632e+00
          23   2.4071e+03   2.4770e+01   0.0000e+00  -3.9876e+00   5.9978e-01   0.0000e+00   4.0325e+00
          25   2.3423e+03   1.7490e+01   0.0000e+00  -3.1230e+00   5.0248e-01   0.0000e+00   3.1632e+00
          27   2.2820e+03   2.0757e+01   0.0000e+00  -2.1755e+00   7.2945e-01   0.0000e+00   2.2945e+00
          29   2.2150e+03   2.0601e+01   0.0000e+00  -1.1804e+00   1.1320e+00   0.0000e+00   1.6355e+00
          31   2.1975e+03   1.0347e+02   0.0000e+00  -2.4836e+00   2.4708e+00   0.0000e+00   3.5033e+00
          33   2.1566e+03   1.5801e+02   0.0000e+00  -3.6503e+00   2.8947e+00   0.0000e+00   4.6587e+00
          35   2.1000e+03   1.9786e+02   0.0000e+00  -4.7053e+00   2.1897e+00   0.0000e+00   5.1899e+00
          37   2.0342e+03   2.1841e+02   0.0000e+00  -5.2152e+00   8.6186e-01   0.0000e+00   5.2859e+00
          39   1.9654e+03   2.2013e+02   0.0000e+00  -4.9899e+00  -5.7585e-01   0.0000e+00   5.0230e+00
          41   1.8930e+03   2.0319e+02   0.0000e+00  -4.0334e+00  -1.6711e+00   0.0000e+00   4.3659e+00
          43   1.8382e+03   1.5483e+02   0.0000e+00  -2.9322e+00  -2.1891e+00   0.0000e+00   3.6592e+00
          45   1.8011e+03   9.8393e+01   0.0000e+00  -1.7982e+00  -1.7622e+00   0.0000e+00   2.5177e+00
          47   1.7852e+03   3.7930e+01   0.0000e+00  -1.0645e+00  -5.9788e-01   0.0000e+00   1.2209e+00
          49   1.7485e+03   1.7329e+01   0.0000e+00  -1.0512e+00  -5.8393e-01   0.0000e+00   1.2025e+00
          50   1.6374e+03   2.9791e+01   0.0000e+00  -2.0135e+00  -3.1607e-01   0.0000e+00   2.0381e+00
          52   1.5004e+03   3.0065e+01   0.0000e+00  -2.4304e+00  -1.6138e-01   0.0000e+00   2.4358e+00
          54   1.3682e+03   2.9857e+01   0.0000e+00  -2.6475e+00  -6.5926e-02   0.0000e+00   2.6483e+00
          56   1.2459e+03   3.0044e+01   0.0000e+00  -2.7022e+00   2.2665e-03   0.0000e+00   2.7022e+00
          58   1.1325e+03   3.0861e+01   0.0000e+00  -2.6563e+00   4.6129e-02   0.0000e+00   2.6567e+00
          60   1.0195e+03   3.2032e+01   0.0000e+00  -2.5552e+00   6.8867e-02   0.0000e+00   2.5561e+00
          62   9.0647e+02   3.2793e+01   0.0000e+00  -2.4340e+00   7.1831e-02   0.0000e+00   2.4351e+00
          64   7.9393e+02   3.3018e+01   0.0000e+00  -2.3189e+00   6.2154e-02   0.0000e+00   2.3197e+00
          66   6.8195e+02   3.3050e+01   0.0000e+00  -2.2236e+00   4.8383e-02   0.0000e+00   2.2241e+00
          68   5.7034e+02   3.3044e+01   0.0000e+00  -2.1514e+00   3.5481e-02   0.0000e+00   2.1517e+00
          70   4.5903e+02   3.2981e+01   0.0000e+00  -2.0993e+00   2.5212e-02   0.0000e+00   2.0995e+00
          72   3.5292e+02   3.2665e+01   0.0000e+00  -2.0644e+00   1.7340e-02   0.0000e+00   2.0645e+00
          74   2.5197e+02   3.2006e+01   0.0000e+00  -2.0406e+00   1.2762e-02   0.0000e+00   2.0407e+00
          76   1.5174e+02   3.0261e+01   0.0000e+00  -2.0225e+00   9.5048e-03   0.0000e+00   2.0225e+00
          78   5.6910e+01   2.5552e+01   0.0000e+00  -2.0067e+00   7.4126e-03   0.0000e+00   2.0067e+00
          80   2.3577e+01   6.3647e+01   0.0000e+00  -2.0074e+00   8.0622e-03   0.0000e+00   2.0074e+00
          81   3.1738e+01   1.7522e+02   0.0000e+00  -2.0067e+00   2.2443e-02   0.0000e+00   2.0068e+00
          83   2.3804e+01   2.8639e+02   0.0000e+00  -2.0036e+00   3.2440e-02   0.0000e+00   2.0039e+00
          85   3.4476e+01   3.9847e+02   0.0000e+00  -2.0001e+00   3.6256e-02   0.0000e+00   2.0005e+00
          87   3.1374e+01   5.1673e+02   0.0000e+00  -1.9960e+00   3.3060e-02   0.0000e+00   1.9963e+00
          89   2.9272e+01   6.3057e+02   0.0000e+00  -1.9934e+00   2.3659e-02   0.0000e+00   1.9935e+00
          91   2.4549e+01   7.3704e+02   0.0000e+00  -1.9922e+00   7.9215e-03   0.0000e+00   1.9923e+00
          93   6.2490e+01   7.7513e+02   0.0000e+00  -1.9918e+00   8.3384e-03   0.0000e+00   1.9918e+00
          94   1.6808e+02   7.6979e+02   0.0000e+00  -1.9720e+00   1.0658e-02   0.0000e+00   1.9720e+00
          96   2.8162e+02   7.6668e+02   0.0000e+00  -1.9472e+00   1.6714e-02   0.0000e+00   1.9473e+00
          98   3.9624e+02   7.6623e+02   0.0000e+00  -1.9095e+00   2.6329e-02   0.0000e+00   1.9097e+00
         100   5.1047e+02   7.6578e+02   0.0000e+00  -1.8488e+00   4.3555e-02   0.0000e+00   1.8493e+00
         102   6.2552e+02   7.6484e+02   0.0000e+00  -1.7492e+00   7.5184e-02   0.0000e+00   1.7508e+00
         104   7.4150e+02   7.6568e+02   0.0000e+00  -1.5737e+00   1.4020e-01   0.0000e+00   1.5799e+00
         106   8.5372e+02   7.6899e+02   0.0000e+00  -1.2409e+00   2.5762e-01   0.0000e+00   1.2674e+00
         108   9.5344e+02   7.7252e+02   0.0000e+00  -6.1904e-01   4.4448e-01   0.0000e+00   7.6208e-01
         110   9.8817e+02   7.4664e+02   0.0000e+00  -6.6825e-01   4.7177e-01   0.0000e+00   8.1800e-01
         111   1.0016e+03   6.9664e+02   0.0000e+00  -7.5510e-01   1.4861e+00   0.0000e+00   1.6669e+00
         112   1.0451e+03   5.9898e+02   0.0000e+00  -2.0900e+00   1.7296e+00   0.0000e+00   2.7128e+00
         115   1.1042e+03   5.4418e+02   0.0000e+00  -3.0784e+00   1.8258e+00   0.0000e+00   3.5792e+00
         117   1.1756e+03   4.9849e+02   0.0000e+00  -3.9125e+00   1.2933e+00   0.0000e+00   4.1207e+00
         119   1.2599e+03   4.8112e+02   0.0000e+00  -4.4890e+00   4.2976e-01   0.0000e+00   4.5096e+00
         121   1.3426e+03   4.8236e+02   0.0000e+00  -4.5288e+00  -5.6268e-01   0.0000e+00   4.5636e+00
         123   1.4235e+03   5.0309e+02   0.0000e+00  -4.0438e+00  -1.4483e+00   0.0000e+00   4.2953e+00
         125   1.4966e+03   5.4457e+02   0.0000e+00  -3.1883e+00  -1.9885e+00   0.0000e+00   3.7576e+00
         127   1.5546e+03   6.0291e+02   0.0000e+00  -2.2113e+00  -1.9733e+00   0.0000e+00   2.9637e+00
         129   1.5960e+03   6.7182e+02   0.0000e+00  -1.3213e+00  -1.4172e+00   0.0000e+00   1.9375e+00
         131   1.6204e+03   7.4737e+02   0.0000e+00  -7.6270e-01  -4.9451e-01   0.0000e+00   9.0898e-01
         133   1.6565e+03   7.7325e+02   0.0000e+00  -6.6153e-01  -4.0428e-01   0.0000e+00   7.7529e-01
         134   1.7603e+03   7.7252e+02   0.0000e+00  -1.3538e+00  -2.0486e-01   0.0000e+00   1.3692e+00
         136   1.8740e+03   7.7209e+02   0.0000e+00  -1.6542e+00  -6.5228e-02   0.0000e+00   1.6555e+00
         138   1.9906e+03   7.7178e+02   0.0000e+00  -1.6869e+00   4.8551e-02   0.0000e+00   1.6876e+00
         140   2.1083e+03   7.7170e+02   0.0000e+00  -1.5052e+00   1.5826e-01   0.0000e+00   1.5135e+00
         142   2.2257e+03   7.7282e+02   0.0000e+00  -1.1257e+00   2.5144e-01   0.0000e+00   1.1535e+00
         144   2.3360e+03   7.7602e+02   0.0000e+00  -4.2246e-01   3.6905e-01   0.0000e+00   5.6095e-01
         146   2.3770e+03   7.3833e+02   0.0000e+00  -4.7950e-01   4.2811e-01   0.0000e+00   6.4281e-01
         147   2.3782e+03   6.4249e+02   0.0000e+00  -6.3260e-01   1.2301e+00   0.0000e+00   1.3833e+00
         149   2.4023e+03   5.7075e+02   0.0000e+00  -7.5727e-01   1.8427e+00   0.0000e+00   1.9922e+00
         151   2.4145e+03   5.1111e+02   0.0000e+00  -1.0646e+00   2.3573e+00   0.0000e+00   2.5866e+00
         153   2.4364e+03   4.5596e+02   0.0000e+00  -1.4523e+00   2.9513e+00   0.0000e+00   3.2893e+00
         155   2.4526e+03   3.9903e+02   0.0000e+00  -2.1012e+00   3.4637e+00   0.0000e+00   4.0512e+00
         157   2.4791e+03   3.4153e+02   0.0000e+00  -3.0221e+00   3.9393e+00   0.0000e+00   4.9650e+00
         159   2.5133e+03   2.8839e+02   0.0000e+00  -4.3229e+00   4.2859e+00   0.0000e+00   6.0874e+00
         161   2.5553e+03   2.4105e+02   0.0000e+00  -6.1207e+00   4.2592e+00   0.0000e+00   7.4568e+00
         163   2.6073e+03   2.0393e+02   0.0000e+00  -8.4652e+00   3.3802e+00   0.0000e+00   9.1151e+00
         165   2.6712e+03   1.8076e+02   0.0000e+00  -1.0297e+01   8.9936e-01   0.0000e+00   1.0336e+01
         167   2.7494e+03   1.8941e+02   0.0000e+00  -9.5641e+00  -2.3962e+00   0.0000e+00   9.8597e+00
         169   2.8415e+03   2.3290e+02   0.0000e+00  -6.2179e+00  -3.8006e+00   0.0000e+00   7.2875e+00
         171   2.9125e+03   3.2072e+02   0.0000e+00  -3.4596e+00  -3.6066e+00   0.0000e+00   4.9976e+00
         173   2.9619e+03   4.1821e+02   0.0000e+00  -1.8687e+00  -2.6873e+00   0.0000e+00   3.2732e+00
         175   2.9973e+03   5.2175e+02   0.0000e+00  -1.0555e+00  -1.8025e+00   0.0000e+00   2.0887e+00
         177   3.0235e+03   6.3244e+02   0.0000e+00  -6.3681e-01  -1.0632e+00   0.0000e+00   1.2393e+00
         179   3.0231e+03   7.3919e+02   0.0000e+00  -4.0394e-01  -3.5381e-01   0.0000e+00   5.3698e-01
         181   3.0617e+03   7.7502e+02   0.0000e+00  -3.4121e-01  -2.9185e-01   0.0000e+00   4.4900e-01
         182   3.1668e+03   7.7030e+02   0.0000e+00  -9.0221e-01  -2.3346e-01   0.0000e+00   9.3193e-01
         184   3.2776e+03   7.6879e+02   0.0000e+00  -1.2648e+00  -1.7228e-01   0.0000e+00   1.2765e+00
         186   3.3885e+03   7.6831e+02   0.0000e+00  -1.5170e+00  -1.1578e-01   0.0000e+00   1.5215e+00
         188   3.4995e+03   7.6801e+02   0.0000e+00  -1.6828e+00  -7.5435e-02   0.0000e+00   1.6845e+00
         190   3.6109e+03   7.6799e+02   0.0000e+00  -1.7886e+00  -4.7555e-02   0.0000e+00   1.7892e+00
         192   3.7223e+03   7.6872e+02   0.0000e+00  -1.8540e+00  -2.8044e-02   0.0000e+00   1.8542e+00
         194   3.8327e+03   7.7044e+02   0.0000e+00  -1.8916e+00  -1.4456e-02   0.0000e+00   1.8917e+00
         196   3.9372e+03   7.7461e+02   0.0000e+00  -1.9096e+00  -5.2198e-03   0.0000e+00   1.9096e+00
         198   3.9742e+03   7.3652e+02   0.0000e+00  -1.9147e+00   1.2500e-06   0.0000e+00   1.9147e+00
         199   3.9655e+03   6.2601e+02   0.0000e+00  -1.9315e+00  -5.0000e-07   0.0000e+00   1.9315e+00
         201   3.9704e+03   5.1080e+02   0.0000e+00  -1.9640e+00  -6.8750e-07   0.0000e+00   1.9640e+00
         203   3.9709e+03   3.9876e+02   0.0000e+00  -2.0009e+00   7.5000e-07   0.0000e+00   2.0009e+00
         205   3.9706e+03   2.8589e+02   0.0000e+00  -2.0387e+00  -1.2500e-07   0.0000e+00   2.0387e+00
         207   3.9707e+03   1.7280e+02   0.0000e+00  -2.0692e+00  -7.5000e-07   0.0000e+00   2.0692e+00
         209   3.9736e+03   6.5021e+01   0.0000e+00  -2.0853e+00   3.7500e-07   0.0000e+00   2.0853e+00
         211   3.9319e+03   2.6926e+01   0.0000e+00  -2.0919e+00  -6.4950e-03   0.0000e+00   2.0919e+00
         212   3.8135e+03   3.6756e+01   0.0000e+00  -2.1147e+00  -1.9619e-02   0.0000e+00   2.1147e+00
         214   3.6917e+03   3.2670e+01   0.0000e+00  -2.1630e+00  -3.5404e-02   0.0000e+00   2.1633e+00
