    ID de Nó     Coord. X     Coord. Y     Coord. Z      Escalar
        3408   4.3455e-14   2.9630e+01   0.0000e+00  -1.2843e+01
        3409   3.1021e-14   5.9259e+01   0.0000e+00  -1.2843e+01
        3410   1.8586e-14   8.8889e+01   0.0000e+00  -1.2843e+01
        3411   6.1516e-15   1.1852e+02   0.0000e+00  -1.2844e+01
        3412  -6.2829e-15   1.4815e+02   0.0000e+00  -1.2844e+01
        3413  -1.8717e-14   1.7778e+02   0.0000e+00  -1.2845e+01
        3414  -3.1152e-14   2.0741e+02   0.0000e+00  -1.2846e+01
        3415  -4.3586e-14   2.3704e+02   0.0000e+00  -1.2847e+01
        3416  -5.6021e-14   2.6667e+02   0.0000e+00  -1.2848e+01
        3417  -6.8455e-14   2.9630e+02   0.0000e+00  -1.2849e+01
        3418  -8.0890e-14   3.2593e+02   0.0000e+00  -1.2850e+01
        3419  -9.3324e-14   3.5556e+02   0.0000e+00  -1.2851e+01
        3420  -1.0576e-13   3.8519e+02   0.0000e+00  -1.2852e+01
        3421  -1.1819e-13   4.1481e+02   0.0000e+00  -1.2853e+01
        3422  -1.3063e-13   4.4444e+02   0.0000e+00  -1.2854e+01
        3423  -1.4306e-13   4.7407e+02   0.0000e+00  -1.2855e+01
        3424  -1.5550e-13   5.0370e+02   0.0000e+00  -1.2856e+01
        3425  -1.6793e-13   5.3333e+02   0.0000e+00  -1.2857e+01
        3426  -1.8037e-13   5.6296e+02   0.0000e+00  -1.2858e+01
        3427  -1.9280e-13   5.9259e+02   0.0000e+00  -1.2859e+01
        3428  -2.0523e-13   6.2222e+02   0.0000e+00  -1.2860e+01
        3429  -2.1767e-13   6.5185e+02   0.0000e+00  -1.2860e+01
        3430  -2.3010e-13   6.8148e+02   0.0000e+00  -1.2861e+01
        3431  -2.4254e-13   7.1111e+02   0.0000e+00  -1.2861e+01
        3432  -2.5497e-13   7.4074e+02   0.0000e+00  -1.2862e+01
        3433  -2.6741e-13   7.7037e+02   0.0000e+00  -1.2862e+01
        3434   3.0303e+01   8.0000e+02   0.0000e+00  -1.2801e+01
        3435   6.0606e+01   8.0000e+02   0.0000e+00  -1.2741e+01
        3436   9.0909e+01   8.0000e+02   0.0000e+00  -1.2681e+01
        3437   1.2121e+02   8.0000e+02   0.0000e+00  -1.2621e+01
        3438   1.5152e+02   8.0000e+02   0.0000e+00  -1.2561e+01
        3439   1.8182e+02   8.0000e+02   0.0000e+00  -1.2501e+01
        3440   2.1212e+02   8.0000e+02   0.0000e+00  -1.2441e+01
        3441   2.4242e+02   8.0000e+02   0.0000e+00  -1.2382e+01
        3442   2.7273e+02   8.0000e+02   0.0000e+00  -1.2323e+01
        3443   3.0303e+02   8.0000e+02   0.0000e+00  -1.2264e+01
        3444   3.3333e+02   8.0000e+02   0.0000e+00  -1.2205e+01
        3445   3.6364e+02   8.0000e+02   0.0000e+00  -1.2147e+01
        3446   3.9394e+02   8.0000e+02   0.0000e+00  -1.2089e+01
        3447   4.2424e+02   8.0000e+02   0.0000e+00  -1.2031e+01
        3448   4.5455e+02   8.0000e+02   0.0000e+00  -1.1974e+01
        3449   4.8485e+02   8.0000e+02   0.0000e+00  -1.1917e+01
        3450   5.1515e+02   8.0000e+02   0.0000e+00  -1.1861e+01
        3451   5.4545e+02   8.0000e+02   0.0000e+00  -1.1805e+01
        3452   5.7576e+02   8.0000e+02   0.0000e+00  -1.1750e+01
        3453   6.0606e+02   8.0000e+02   0.0000e+00  -1.1696e+01
        3454   6.3636e+02   8.0000e+02   0.0000e+00  -1.1643e+01
        3455   6.6667e+02   8.0000e+02   0.0000e+00  -1.1591e+01
        3456   6.9697e+02   8.0000e+02   0.0000e+00  -1.1540e+01
        3457   7.2727e+02   8.0000e+02   0.0000e+00  -1.1491e+01
        3458   7.5758e+02   8.0000e+02   0.0000e+00  -1.1444e+01
        3459   7.8788e+02   8.0000e+02   0.0000e+00  -1.1399e+01
        3460   8.1818e+02   8.0000e+02   0.0000e+00  -1.1357e+01
        3461   8.4848e+02   8.0000e+02   0.0000e+00  -1.1317e+01
        3462   8.7879e+02   8.0000e+02   0.0000e+00  -1.1282e+01
        3463   9.0909e+02   8.0000e+02   0.0000e+00  -1.1252e+01
        3464   9.3939e+02   8.0000e+02   0.0000e+00  -1.1227e+01
        3465   9.6970e+02   8.0000e+02   0.0000e+00  -1.1210e+01
        3466   1.7706e+03   0.0000e+00   0.0000e+00  -8.8412e+00
        3467   1.7412e+03   0.0000e+00   0.0000e+00  -8.8684e+00
        3468   1.7118e+03   0.0000e+00   0.0000e+00  -8.9063e+00
        3469   1.6824e+03   0.0000e+00   0.0000e+00  -8.9526e+00
        3470   1.6529e+03   0.0000e+00   0.0000e+00  -9.0051e+00
        3471   1.6235e+03   0.0000e+00   0.0000e+00  -9.0627e+00
        3472   1.5941e+03   0.0000e+00   0.0000e+00  -9.1244e+00
        3473   1.5647e+03   0.0000e+00   0.0000e+00  -9.1895e+00
        3474   1.5353e+03   0.0000e+00   0.0000e+00  -9.2576e+00
        3475   1.5059e+03   0.0000e+00   0.0000e+00  -9.3282e+00
        3476   1.4765e+03   0.0000e+00   0.0000e+00  -9.4009e+00
        3477   1.4471e+03   0.0000e+00   0.0000e+00  -9.4754e+00
        3478   1.4176e+03   0.0000e+00   0.0000e+00  -9.5514e+00
        3479   1.3882e+03   0.0000e+00   0.0000e+00  -9.6287e+00
        3480   1.3588e+03   0.0000e+00   0.0000e+00  -9.7070e+00
        3481   1.3294e+03   0.0000e+00   0.0000e+00  -9.7861e+00
        3482   1.3000e+03   0.0000e+00   0.0000e+00  -9.8658e+00
        3483   1.2700e+03   0.0000e+00   0.0000e+00  -9.9474e+00
        3484   1.2400e+03   0.0000e+00   0.0000e+00  -1.0029e+01
        3485   1.2100e+03   0.0000e+00   0.0000e+00  -1.0111e+01
        3486   1.1800e+03   0.0000e+00   0.0000e+00  -1.0192e+01
        3487   1.1500e+03   0.0000e+00   0.0000e+00  -1.0273e+01
        3488   1.1200e+03   0.0000e+00   0.0000e+00  -1.0354e+01
        3489   1.0900e+03   0.0000e+00   0.0000e+00  -1.0433e+01
        3490   1.0600e+03   0.0000e+00   0.0000e+00  -1.0512e+01
        3491   1.0300e+03   0.0000e+00   0.0000e+00  -1.0590e+01
        3492   1.0000e+03   0.0000e+00   0.0000e+00  -1.0667e+01
        3493   9.7000e+02   0.0000e+00   0.0000e+00  -1.0743e+01
        3494   9.4000e+02   0.0000e+00   0.0000e+00  -1.0818e+01
        3495   9.1000e+02   0.0000e+00   0.0000e+00  -1.0892e+01
        3496   8.8000e+02   0.0000e+00   0.0000e+00  -1.0965e+01
        3497   8.5000e+02   0.0000e+00   0.0000e+00  -1.1037e+01
        3498   8.2000e+02   0.0000e+00   0.0000e+00  -1.1108e+01
        3499   7.9000e+02   0.0000e+00   0.0000e+00  -1.1178e+01
        3500   7.6000e+02   0.0000e+00   0.0000e+00  -1.1248e+01
        3501   7.3000e+02   0.0000e+00   0.0000e+00  -1.1316e+01
        3502   7.0000e+02   0.0000e+00   0.0000e+00  -1.1384e+01
        3503   6.7000e+02   0.0000e+00   0.0000e+00  -1.1451e+01
        3504   6.4000e+02   0.0000e+00   0.0000e+00  -1.1517e+01
        3505   6.1000e+02   0.0000e+00   0.0000e+00  -1.1583e+01
        3506   5.8000e+02   0.0000e+00   0.0000e+00  -1.1648e+01
        3507   5.5000e+02   0.0000e+00   0.0000e+00  -1.1712e+01
        3508   5.2000e+02   0.0000e+00   0.0000e+00  -1.1776e+01
        3509   4.9000e+02   0.0000e+00   0.0000e+00  -1.1840e+01
        3510   4.6000e+02   0.0000e+00   0.0000e+00  -1.1903e+01
        3511   4.3000e+02   0.0000e+00   0.0000e+00  -1.1966e+01
        3512   4.0000e+02   0.0000e+00   0.0000e+00  -1.2029e+01
        3513   3.6923e+02   0.0000e+00   0.0000e+00  -1.2093e+01
        3514   3.3846e+02   0.0000e+00   0.0000e+00  -1.2156e+01
        3515   3.0769e+02   0.0000e+00   0.0000e+00  -1.2220e+01
        3516   2.7692e+02   0.0000e+00   0.0000e+00  -1.2283e+01
        3517   2.4615e+02   0.0000e+00   0.0000e+00  -1.2346e+01
        3518   2.1538e+02   0.0000e+00   0.0000e+00  -1.2409e+01
        3519   1.8462e+02   0.0000e+00   0.0000e+00  -1.2471e+01
        3520   1.5385e+02   0.0000e+00   0.0000e+00  -1.2533e+01
        3521   1.2308e+02   0.0000e+00   0.0000e+00  -1.2596e+01
        3522   9.2308e+01   0.0000e+00   0.0000e+00  -1.2658e+01
        3523   6.1538e+01   0.0000e+00   0.0000e+00  -1.2719e+01
        3524   3.0769e+01   0.0000e+00   0.0000e+00  -1.2781e+01
        3525   1.0015e+03   7.7060e+02   0.0000e+00  -1.1198e+01
        3526   1.0058e+03   7.4147e+02   0.0000e+00  -1.1178e+01
        3527   1.0129e+03   7.1292e+02   0.0000e+00  -1.1147e+01
        3528   1.0228e+03   6.8520e+02   0.0000e+00  -1.1103e+01
        3529   1.0354e+03   6.5858e+02   0.0000e+00  -1.1047e+01
        3530   1.0506e+03   6.3333e+02   0.0000e+00  -1.0979e+01
        3531   1.0681e+03   6.0968e+02   0.0000e+00  -1.0901e+01
        3532   1.0879e+03   5.8787e+02   0.0000e+00  -1.0813e+01
        3533   1.1097e+03   5.6810e+02   0.0000e+00  -1.0714e+01
        3534   1.1333e+03   5.5056e+02   0.0000e+00  -1.0607e+01
        3535   1.1586e+03   5.3542e+02   0.0000e+00  -1.0493e+01
        3536   1.1852e+03   5.2284e+02   0.0000e+00  -1.0372e+01
        3537   1.2129e+03   5.1292e+02   0.0000e+00  -1.0245e+01
        3538   1.2415e+03   5.0576e+02   0.0000e+00  -1.0114e+01
        3539   1.2706e+03   5.0145e+02   0.0000e+00  -9.9796e+00
        3540   1.3000e+03   5.0000e+02   0.0000e+00  -9.8434e+00
        3541   1.3294e+03   5.0145e+02   0.0000e+00  -9.7066e+00
        3542   1.3585e+03   5.0576e+02   0.0000e+00  -9.5704e+00
        3543   1.3871e+03   5.1292e+02   0.0000e+00  -9.4361e+00
        3544   1.4148e+03   5.2284e+02   0.0000e+00  -9.3048e+00
        3545   1.4414e+03   5.3542e+02   0.0000e+00  -9.1778e+00
        3546   1.4667e+03   5.5056e+02   0.0000e+00  -9.0570e+00
        3547   1.4903e+03   5.6810e+02   0.0000e+00  -8.9432e+00
        3548   1.5121e+03   5.8787e+02   0.0000e+00  -8.8376e+00
        3549   1.5319e+03   6.0968e+02   0.0000e+00  -8.7415e+00
        3550   1.5494e+03   6.3333e+02   0.0000e+00  -8.6561e+00
        3551   1.5646e+03   6.5858e+02   0.0000e+00  -8.5823e+00
        3552   1.5772e+03   6.8520e+02   0.0000e+00  -8.5212e+00
        3553   1.5871e+03   7.1292e+02   0.0000e+00  -8.4733e+00
        3554   1.5942e+03   7.4147e+02   0.0000e+00  -8.4386e+00
        3555   1.5985e+03   7.7060e+02   0.0000e+00  -8.4171e+00
        3556   2.1975e+03   3.1287e+01   0.0000e+00  -6.5329e+00
        3557   2.1902e+03   6.1803e+01   0.0000e+00  -6.5933e+00
        3558   2.1782e+03   9.0798e+01   0.0000e+00  -6.6871e+00
        3559   2.1618e+03   1.1756e+02   0.0000e+00  -6.8095e+00
        3560   2.1414e+03   1.4142e+02   0.0000e+00  -6.9528e+00
        3561   2.1176e+03   1.6180e+02   0.0000e+00  -7.1101e+00
        3562   2.0908e+03   1.7820e+02   0.0000e+00  -7.2757e+00
        3563   2.0618e+03   1.9021e+02   0.0000e+00  -7.4452e+00
        3564   2.0313e+03   1.9754e+02   0.0000e+00  -7.6149e+00
        3565   2.0000e+03   2.0000e+02   0.0000e+00  -7.7827e+00
        3566   1.9687e+03   1.9754e+02   0.0000e+00  -7.9465e+00
        3567   1.9382e+03   1.9021e+02   0.0000e+00  -8.1043e+00
        3568   1.9092e+03   1.7820e+02   0.0000e+00  -8.2540e+00
        3569   1.8824e+03   1.6180e+02   0.0000e+00  -8.3924e+00
        3570   1.8586e+03   1.4142e+02   0.0000e+00  -8.5169e+00
        3571   1.8382e+03   1.1756e+02   0.0000e+00  -8.6245e+00
        3572   1.8218e+03   9.0798e+01   0.0000e+00  -8.7122e+00
        3573   1.8098e+03   6.1803e+01   0.0000e+00  -8.7767e+00
        3574   1.8025e+03   3.1287e+01   0.0000e+00  -8.8171e+00
        3575   1.6296e+03   8.0000e+02   0.0000e+00  -8.4038e+00
        3576   1.6593e+03   8.0000e+02   0.0000e+00  -8.3860e+00
        3577   1.6889e+03   8.0000e+02   0.0000e+00  -8.3604e+00
        3578   1.7185e+03   8.0000e+02   0.0000e+00  -8.3285e+00
        3579   1.7481e+03   8.0000e+02   0.0000e+00  -8.2916e+00
        3580   1.7778e+03   8.0000e+02   0.0000e+00  -8.2506e+00
        3581   1.8074e+03   8.0000e+02   0.0000e+00  -8.2065e+00
        3582   1.8370e+03   8.0000e+02   0.0000e+00  -8.1600e+00
        3583   1.8667e+03   8.0000e+02   0.0000e+00  -8.1116e+00
        3584   1.8963e+03   8.0000e+02   0.0000e+00  -8.0620e+00
        3585   1.9259e+03   8.0000e+02   0.0000e+00  -8.0116e+00
        3586   1.9556e+03   8.0000e+02   0.0000e+00  -7.9608e+00
        3587   1.9852e+03   8.0000e+02   0.0000e+00  -7.9101e+00
        3588   2.0148e+03   8.0000e+02   0.0000e+00  -7.8600e+00
        3589   2.0444e+03   8.0000e+02   0.0000e+00  -7.8107e+00
        3590   2.0741e+03   8.0000e+02   0.0000e+00  -7.7628e+00
        3591   2.1037e+03   8.0000e+02   0.0000e+00  -7.7167e+00
        3592   2.1333e+03   8.0000e+02   0.0000e+00  -7.6728e+00
        3593   2.1630e+03   8.0000e+02   0.0000e+00  -7.6314e+00
        3594   2.1926e+03   8.0000e+02   0.0000e+00  -7.5932e+00
        3595   2.2222e+03   8.0000e+02   0.0000e+00  -7.5584e+00
        3596   2.2519e+03   8.0000e+02   0.0000e+00  -7.5276e+00
        3597   2.2815e+03   8.0000e+02   0.0000e+00  -7.5013e+00
        3598   2.3111e+03   8.0000e+02   0.0000e+00  -7.4800e+00
        3599   2.3407e+03   8.0000e+02   0.0000e+00  -7.4641e+00
        3600   2.3704e+03   8.0000e+02   0.0000e+00  -7.4539e+00
        3601   2.4004e+03   7.6975e+02   0.0000e+00  -7.4470e+00
        3602   2.4015e+03   7.3951e+02   0.0000e+00  -7.4357e+00
        3603   2.4034e+03   7.0932e+02   0.0000e+00  -7.4173e+00
        3604   2.4061e+03   6.7919e+02   0.0000e+00  -7.3913e+00
        3605   2.4096e+03   6.4913e+02   0.0000e+00  -7.3572e+00
        3606   2.4139e+03   6.1918e+02   0.0000e+00  -7.3151e+00
        3607   2.4191e+03   5.8937e+02   0.0000e+00  -7.2645e+00
        3608   2.4251e+03   5.5971e+02   0.0000e+00  -7.2051e+00
        3609   2.4320e+03   5.3025e+02   0.0000e+00  -7.1362e+00
        3610   2.4399e+03   5.0105e+02   0.0000e+00  -7.0576e+00
        3611   2.4487e+03   4.7210e+02   0.0000e+00  -6.9686e+00
        3612   2.4586e+03   4.4352e+02   0.0000e+00  -6.8685e+00
        3613   2.4698e+03   4.1537e+02   0.0000e+00  -6.7570e+00
        3614   2.4820e+03   3.8768e+02   0.0000e+00  -6.6327e+00
        3615   2.4957e+03   3.6068e+02   0.0000e+00  -6.4949e+00
        3616   2.5108e+03   3.3443e+02   0.0000e+00  -6.3423e+00
        3617   2.5274e+03   3.0913e+02   0.0000e+00  -6.1727e+00
        3618   2.5460e+03   2.8521e+02   0.0000e+00  -5.9841e+00
        3619   2.5663e+03   2.6276e+02   0.0000e+00  -5.7739e+00
        3620   2.5890e+03   2.4269e+02   0.0000e+00  -5.5389e+00
        3621   2.6138e+03   2.2525e+02   0.0000e+00  -5.2768e+00
        3622   2.6409e+03   2.1182e+02   0.0000e+00  -4.9867e+00
        3623   2.6699e+03   2.0304e+02   0.0000e+00  -4.6732e+00
        3624   2.7000e+03   2.0003e+02   0.0000e+00  -4.3454e+00
        3625   2.7301e+03   2.0308e+02   0.0000e+00  -4.0187e+00
        3626   2.7591e+03   2.1175e+02   0.0000e+00  -3.7073e+00
        3627   2.7862e+03   2.2538e+02   0.0000e+00  -3.4207e+00
        3628   2.8111e+03   2.4261e+02   0.0000e+00  -3.1643e+00
        3629   2.8336e+03   2.6289e+02   0.0000e+00  -2.9371e+00
        3630   2.8542e+03   2.8515e+02   0.0000e+00  -2.7370e+00
        3631   2.8725e+03   3.0923e+02   0.0000e+00  -2.5607e+00
        3632   2.8893e+03   3.3442e+02   0.0000e+00  -2.4047e+00
        3633   2.9043e+03   3.6070e+02   0.0000e+00  -2.2668e+00
        3634   2.9180e+03   3.8773e+02   0.0000e+00  -2.1447e+00
        3635   2.9303e+03   4.1536e+02   0.0000e+00  -2.0366e+00
        3636   2.9413e+03   4.4356e+02   0.0000e+00  -1.9408e+00
        3637   2.9513e+03   4.7213e+02   0.0000e+00  -1.8561e+00
        3638   2.9601e+03   5.0105e+02   0.0000e+00  -1.7812e+00
        3639   2.9680e+03   5.3029e+02   0.0000e+00  -1.7156e+00
        3640   2.9749e+03   5.5973e+02   0.0000e+00  -1.6586e+00
        3641   2.9809e+03   5.8938e+02   0.0000e+00  -1.6093e+00
        3642   2.9860e+03   6.1920e+02   0.0000e+00  -1.5672e+00
        3643   2.9904e+03   6.4915e+02   0.0000e+00  -1.5323e+00
        3644   2.9939e+03   6.7920e+02   0.0000e+00  -1.5041e+00
        3645   2.9966e+03   7.0933e+02   0.0000e+00  -1.4825e+00
        3646   2.9985e+03   7.3953e+02   0.0000e+00  -1.4672e+00
        3647   2.9996e+03   7.6975e+02   0.0000e+00  -1.4579e+00
        3648   3.9688e+03   0.0000e+00   0.0000e+00  -6.5308e-02
        3649   3.9375e+03   0.0000e+00   0.0000e+00  -1.3066e-01
        3650   3.9062e+03   0.0000e+00   0.0000e+00  -1.9609e-01
        3651   3.8750e+03   0.0000e+00   0.0000e+00  -2.6166e-01
        3652   3.8438e+03   0.0000e+00   0.0000e+00  -3.2740e-01
        3653   3.8125e+03   0.0000e+00   0.0000e+00  -3.9337e-01
        3654   3.7812e+03   0.0000e+00   0.0000e+00  -4.5962e-01
        3655   3.7500e+03   0.0000e+00   0.0000e+00  -5.2620e-01
        3656   3.7200e+03   0.0000e+00   0.0000e+00  -5.9050e-01
        3657   3.6900e+03   0.0000e+00   0.0000e+00  -6.5522e-01
        3658   3.6600e+03   0.0000e+00   0.0000e+00  -7.2044e-01
        3659   3.6300e+03   0.0000e+00   0.0000e+00  -7.8622e-01
        3660   3.6000e+03   0.0000e+00   0.0000e+00  -8.5266e-01
        3661   3.5700e+03   0.0000e+00   0.0000e+00  -9.1983e-01
        3662   3.5400e+03   0.0000e+00   0.0000e+00  -9.8785e-01
        3663   3.5100e+03   0.0000e+00   0.0000e+00  -1.0568e+00
        3664   3.4800e+03   0.0000e+00   0.0000e+00  -1.1269e+00
        3665   3.4500e+03   0.0000e+00   0.0000e+00  -1.1982e+00
        3666   3.4200e+03   0.0000e+00   0.0000e+00  -1.2709e+00
        3667   3.3900e+03   0.0000e+00   0.0000e+00  -1.3451e+00
        3668   3.3600e+03   0.0000e+00   0.0000e+00  -1.4211e+00
        3669   3.3300e+03   0.0000e+00   0.0000e+00  -1.4992e+00
        3670   3.3000e+03   0.0000e+00   0.0000e+00  -1.5796e+00
        3671   3.2700e+03   0.0000e+00   0.0000e+00  -1.6625e+00
        3672   3.2400e+03   0.0000e+00   0.0000e+00  -1.7483e+00
        3673   3.2100e+03   0.0000e+00   0.0000e+00  -1.8373e+00
        3674   3.1800e+03   0.0000e+00   0.0000e+00  -1.9301e+00
        3675   3.1500e+03   0.0000e+00   0.0000e+00  -2.0270e+00
        3676   3.1200e+03   0.0000e+00   0.0000e+00  -2.1287e+00
        3677   3.0900e+03   0.0000e+00   0.0000e+00  -2.2356e+00
        3678   3.0600e+03   0.0000e+00   0.0000e+00  -2.3484e+00
        3679   3.0300e+03   0.0000e+00   0.0000e+00  -2.4678e+00
        3680   3.0000e+03   0.0000e+00   0.0000e+00  -2.5945e+00
        3681   2.9700e+03   0.0000e+00   0.0000e+00  -2.7293e+00
        3682   2.9400e+03   0.0000e+00   0.0000e+00  -2.8727e+00
        3683   2.9100e+03   0.0000e+00   0.0000e+00  -3.0254e+00
        3684   2.8800e+03   0.0000e+00   0.0000e+00  -3.1879e+00
        3685   2.8500e+03   0.0000e+00   0.0000e+00  -3.3603e+00
        3686   2.8200e+03   0.0000e+00   0.0000e+00  -3.5426e+00
        3687   2.7900e+03   0.0000e+00   0.0000e+00  -3.7338e+00
        3688   2.7600e+03   0.0000e+00   0.0000e+00  -3.9324e+00
        3689   2.7300e+03   0.0000e+00   0.0000e+00  -4.1363e+00
        3690   2.7000e+03   0.0000e+00   0.0000e+00  -4.3430e+00
        3691   2.6706e+03   0.0000e+00   0.0000e+00  -4.5455e+00
        3692   2.6412e+03   0.0000e+00   0.0000e+00  -4.7448e+00
        3693   2.6118e+03   0.0000e+00   0.0000e+00  -4.9385e+00
        3694   2.5824e+03   0.0000e+00   0.0000e+00  -5.1244e+00
        3695   2.5529e+03   0.0000e+00   0.0000e+00  -5.3010e+00
        3696   2.5235e+03   0.0000e+00   0.0000e+00  -5.4672e+00
        3697   2.4941e+03   0.0000e+00   0.0000e+00  -5.6226e+00
        3698   2.4647e+03   0.0000e+00   0.0000e+00  -5.7667e+00
        3699   2.4353e+03   0.0000e+00   0.0000e+00  -5.8997e+00
        3700   2.4059e+03   0.0000e+00   0.0000e+00  -6.0217e+00
        3701   2.3765e+03   0.0000e+00   0.0000e+00  -6.1325e+00
        3702   2.3471e+03   0.0000e+00   0.0000e+00  -6.2320e+00
        3703   2.3176e+03   0.0000e+00   0.0000e+00  -6.3196e+00
        3704   2.2882e+03   0.0000e+00   0.0000e+00  -6.3944e+00
        3705   2.2588e+03   0.0000e+00   0.0000e+00  -6.4542e+00
        3706   2.2294e+03   0.0000e+00   0.0000e+00  -6.4963e+00
        3707   3.0303e+03   8.0000e+02   0.0000e+00  -1.4520e+00
        3708   3.0606e+03   8.0000e+02   0.0000e+00  -1.4431e+00
        3709   3.0909e+03   8.0000e+02   0.0000e+00  -1.4293e+00
        3710   3.1212e+03   8.0000e+02   0.0000e+00  -1.4108e+00
        3711   3.1515e+03   8.0000e+02   0.0000e+00  -1.3879e+00
        3712   3.1818e+03   8.0000e+02   0.0000e+00  -1.3610e+00
        3713   3.2121e+03   8.0000e+02   0.0000e+00  -1.3307e+00
